   57
G001020865  0.000000  0.927074  1.271700  1.034642  0.988914  1.269746
  0.735177  0.991198  0.618945  0.584032  1.027646  0.215431  0.409980
  0.267419  0.589859  0.988098  0.486759  0.585432  0.966233  0.729275
  0.424619  0.981882  1.266164  0.930517  0.911914  0.992789  0.954023
  1.019118  0.739076  1.004101  0.220578  1.010604  1.262898  1.273044
  1.267755  1.273044  0.967508  1.039783  0.216936  0.581790  0.934594
  0.273206  0.520934  0.581462  1.024136  1.273044  0.217049  0.515835
  1.272844  0.406685  0.539076  0.197775  0.394018  1.270169  0.938662
  0.527476  0.913889
G000801775  0.927074  0.000000  1.268551  0.265206  0.265721  1.269426
  0.897822  0.273523  0.828196  0.909405  0.293213  0.933369  0.891717
  0.886973  0.910559  0.265837  0.872217  0.906068  0.225396  0.879837
  0.886091  0.244109  1.267790  0.246512  0.035089  0.263253  0.363128
  0.267029  0.876148  0.267719  0.953971  0.267789  1.267826  1.268745
  1.266933  1.268745  0.369907  0.263245  0.904246  0.913534  0.364188
  0.883984  0.910245  0.897480  0.290733  1.268745  0.923014  0.882203
  1.270654  0.870469  0.912948  0.976253  0.834770  1.262139  0.376729
  0.883586  0.031534
G001020655  1.271700  1.268551  0.000000  1.368397  1.362433  0.000010
  1.015352  1.404655  1.005059  1.164059  1.425959  1.290364  1.166943
  1.300405  1.144281  1.362420  1.164374  1.126524  1.380396  1.055482
  1.188537  1.371902  0.013445  1.386169  1.279870  1.397120  1.240899
  1.367347  1.053038  1.368613  1.348386  1.401338  0.016923  0.000010
  0.005742  0.000010  1.286650  1.362871  1.252197  1.125378  1.270022
  1.307511  1.158592  1.143005  1.426278  0.000010  1.276140  1.126750
  0.000010  1.160571  1.156268  1.296176  1.165721  0.006201  1.213301
  1.119653  1.290562
G000968415  1.034642  0.265206  1.368397  0.000000  0.150720  1.370149
  1.002116  0.144269  0.891326  0.984484  0.243453  1.014444  0.956532
  0.979038  0.993410  0.150587  0.943500  0.959598  0.234036  0.995302
  1.018648  0.230677  1.353994  0.270460  0.263440  0.151802  0.326036
  0.098645  0.985734  0.147959  1.037942  0.142881  1.359438  1.368533
  1.362669  1.368533  0.368723  0.014592  1.019515  0.977787  0.333072
  0.976249  0.947754  0.971379  0.241414  1.368533  1.036029  0.925942
  1.367820  0.954003  0.985446  1.080953  0.921404  1.362447  0.334688
  0.956719  0.257389
G000801795  0.988914  0.265721  1.362433  0.150720  0.000000  1.364420
  0.998308  0.049806  0.926465  0.980336  0.262904  0.970532  0.963729
  0.961591  0.978119  0.000010  0.932704  0.933652  0.243373  0.990545
  1.020787  0.234603  1.353398  0.249218  0.261785  0.046292  0.333481
  0.149807  0.986108  0.037493  0.999961  0.040368  1.345545  1.362573
  1.359156  1.362573  0.373123  0.150567  0.974444  0.975686  0.341368
  0.960535  0.972104  0.963095  0.260790  1.362573  0.986090  0.943320
  1.360762  0.968323  0.991957  1.044887  0.889904  1.356228  0.356785
  0.965224  0.257989
G001020635  1.269746  1.269426  0.000010  1.370149  1.364420  0.000000
  1.018926  1.408819  1.003622  1.163031  1.429329  1.286960  1.162476
  1.297615  1.145453  1.364406  1.163078  1.126021  1.382520  1.059788
  1.183823  1.373670  0.013523  1.387088  1.281472  1.400213  1.240361
  1.369380  1.057314  1.370649  1.345171  1.403648  0.016788  0.000010
  0.005776  0.000010  1.287681  1.364575  1.250165  1.125570  1.270747
  1.304751  1.157308  1.143007  1.429647  0.000010  1.274447  1.125288
  0.000010  1.154904  1.153860  1.294444  1.159883  0.006237  1.213780
  1.117127  1.291591
G001020715  0.735177  0.897822  1.015352  1.002116  0.998308  1.018926
  0.000000  1.003675  0.594973  0.679880  0.964690  0.805243  0.729377
  0.825963  0.674977  0.998536  0.735206  0.655865  0.928183  0.147046
  0.697337  0.932990  1.004767  0.923826  0.883839  1.002535  0.891437
  1.001040  0.155526  0.999886  0.814555  1.005669  1.009130  1.016497
  1.013196  1.016497  0.913430  1.002568  0.785120  0.680011  0.892359
  0.824427  0.757688  0.678805  0.963999  1.016497  0.787630  0.755138
  1.016459  0.686175  0.721510  0.752164  0.704226  1.015331  0.853019
  0.722426  0.882947
G000803005  0.991198  0.273523  1.404655  0.144269  0.049806  1.408819
  1.003675  0.000000  0.934729  0.987474  0.263290  0.974235  0.966657
  0.957871  0.982073  0.049765  0.940588  0.945270  0.244208  1.000466
  1.029179  0.244162  1.389255  0.255342  0.269715  0.036886  0.343917
  0.147165  0.992367  0.048204  1.004081  0.043944  1.394691  1.406570
  1.398272  1.406570  0.376603  0.149584  0.974417  0.989960  0.347503
  0.955878  0.980557  0.970810  0.261487  1.406570  0.987196  0.956498
  1.404690  0.978774  0.999797  1.053836  0.899145  1.398296  0.355025
  0.971489  0.266004
G001307155  0.618945  0.828196  1.005059  0.891326  0.926465  1.003622
  0.594973  0.934729  0.000000  0.529056  0.885602  0.601130  0.468593
  0.605305  0.500014  0.927511  0.412101  0.509627  0.847165  0.610814
  0.468112  0.864160  1.007351  0.872278  0.824259  0.927957  0.778216
  0.865658  0.623068  0.934225  0.603961  0.934107  1.000190  1.006208
  1.003053  1.006208  0.814953  0.896443  0.623826  0.498381  0.786640
  0.609804  0.410663  0.502547  0.885750  1.006208  0.639642  0.414023
  1.007479  0.458116  0.383470  0.625785  0.434575  1.008033  0.701546
  0.386813  0.823340
G000952735  0.584032  0.909405  1.164059  0.984484  0.980336  1.163031
  0.679880  0.987474  0.529056  0.000000  0.998890  0.626783  0.552561
  0.648100  0.177224  0.981629  0.542395  0.181827  0.938625  0.676792
  0.530574  0.919731  1.170963  0.922274  0.887584  0.983532  0.894151
  0.972323  0.680436  0.984805  0.614863  0.998230  1.166842  1.165333
  1.166308  1.165333  0.917700  0.985280  0.589442  0.192773  0.897403
  0.653167  0.541389  0.191485  0.998531  1.165333  0.582348  0.540681
  1.164936  0.534080  0.516929  0.572287  0.513926  1.168477  0.869875
  0.502862  0.886948
G000968025  1.027646  0.293213  1.425959  0.243453  0.262904  1.429329
  0.964690  0.263290  0.885602  0.998890  0.000000  0.985931  0.959631
  0.938251  0.964089  0.262977  0.890839  0.969050  0.189361  0.965788
  1.003377  0.160658  1.411584  0.278045  0.286308  0.262918  0.346313
  0.220417  0.975286  0.267126  0.997067  0.260442  1.420299  1.426058
  1.424962  1.426058  0.384061  0.245684  1.008446  0.967537  0.347427
  0.938551  0.896195  0.939519  0.001566  1.426058  1.034149  0.873494
  1.425334  0.959624  0.900610  1.040974  0.895280  1.418707  0.324012
  0.879333  0.280230
G001648775  0.215431  0.933369  1.290364  1.014444  0.970532  1.286960
  0.805243  0.974235  0.601130  0.626783  0.985931  0.000000  0.405498
  0.191535  0.617832  0.971832  0.427910  0.620684  0.945567  0.780327
  0.446725  0.965824  1.286084  0.922662  0.918479  0.978190  0.893325
  0.974275  0.788914  0.986348  0.096380  0.990268  1.280302  1.291780
  1.286357  1.291780  0.914173  1.014407  0.187635  0.618559  0.882965
  0.195721  0.474815  0.602941  0.983433  1.291780  0.199095  0.467740
  1.291587  0.411972  0.501555  0.271566  0.375362  1.291315  0.885013
  0.490690  0.923184
G000967965  0.409980  0.891717  1.166943  0.956532  0.963729  1.162476
  0.729377  0.966657  0.468593  0.552561  0.959631  0.405498  0.000000
  0.423833  0.553790  0.964891  0.302320  0.561217  0.900582  0.710412
  0.164755  0.910147  1.174266  0.896749  0.879260  0.964783  0.865494
  0.941623  0.719584  0.967359  0.428629  0.971415  1.160275  1.168231
  1.158147  1.168231  0.874508  0.955218  0.423649  0.535346  0.864978
  0.430477  0.339610  0.533892  0.959436  1.168231  0.432801  0.333150
  1.169863  0.100519  0.383683  0.412516  0.228199  1.168439  0.806835
  0.359133  0.880382
G001020875  0.267419  0.886973  1.300405  0.979038  0.961591  1.297615
  0.825963  0.957871  0.605305  0.648100  0.938251  0.191535  0.423833
  0.000000  0.635134  0.962651  0.442802  0.633959  0.900138  0.813568
  0.461540  0.923776  1.294394  0.916499  0.886781  0.958937  0.874510
  0.949630  0.823913  0.977761  0.206442  0.972745  1.289981  1.301832
  1.296737  1.301832  0.877555  0.978135  0.244541  0.631702  0.862181
  0.017943  0.463703  0.617214  0.936207  1.301832  0.242481  0.456240
  1.303825  0.427061  0.501731  0.323224  0.388360  1.298897  0.845229
  0.482413  0.887581
G001623525  0.589859  0.910559  1.144281  0.993410  0.978119  1.145453
  0.674977  0.982073  0.500014  0.177224  0.964089  0.617832  0.553790
  0.635134  0.000000  0.978363  0.514421  0.110841  0.949897  0.715908
  0.527120  0.925914  1.150319  0.925162  0.898455  0.978450  0.878692
  0.984528  0.721881  0.982703  0.605035  0.987633  1.142447  1.145557
  1.144530  1.145557  0.882365  0.995307  0.591550  0.096165  0.873529
  0.645916  0.520316  0.081724  0.964428  1.145557  0.582705  0.525486
  1.145349  0.538820  0.473410  0.573610  0.514448  1.150170  0.852407
  0.472469  0.897876
G000801815  0.988098  0.265837  1.362420  0.150587  0.000010  1.364406
  0.998536  0.049765  0.927511  0.981629  0.262977  0.971832  0.964891
  0.962651  0.978363  0.000000  0.933754  0.933915  0.243459  0.990778
  1.021987  0.234695  1.353392  0.249287  0.261903  0.046254  0.334035
  0.149675  0.986343  0.037463  1.001285  0.040335  1.345545  1.362560
  1.359146  1.362560  0.373684  0.150435  0.974474  0.976762  0.341924
  0.961594  0.973173  0.964153  0.260865  1.362560  0.986111  0.944375
  1.360750  0.969489  0.993055  1.045985  0.891022  1.356220  0.357340
  0.966291  0.258109
G000967945  0.486759  0.872217  1.164374  0.943500  0.932704  1.163078
  0.735206  0.940588  0.412101  0.542395  0.890839  0.427910  0.302320
  0.442802  0.514421  0.933754  0.000000  0.529974  0.885767  0.722972
  0.359655  0.883299  1.169416  0.891826  0.862254  0.943714  0.820384
  0.915015  0.731132  0.941400  0.469176  0.945127  1.162603  1.165673
  1.161654  1.165673  0.846405  0.941919  0.474589  0.501976  0.815224
  0.449134  0.218200  0.491569  0.889990  1.165673  0.485644  0.225134
  1.166303  0.319740  0.284586  0.481521  0.289869  1.166403  0.751405
  0.268975  0.863475
G001307275  0.585432  0.906068  1.126524  0.959598  0.933652  1.126021
  0.655865  0.945270  0.509627  0.181827  0.969050  0.620684  0.561217
  0.633959  0.110841  0.933915  0.529974  0.000000  0.949042  0.702889
  0.555920  0.932232  1.126659  0.922263  0.895998  0.940324  0.842071
  0.947887  0.705022  0.942237  0.616160  0.944837  1.117503  1.127758
  1.126785  1.127758  0.894454  0.953057  0.595445  0.125260  0.860820
  0.640852  0.527439  0.116330  0.968726  1.127758  0.606892  0.526630
  1.127232  0.547727  0.517903  0.589370  0.508974  1.129458  0.849749
  0.508948  0.893964
G000934565  0.966233  0.225396  1.380396  0.234036  0.243373  1.382520
  0.928183  0.244208  0.847165  0.938625  0.189361  0.945567  0.900582
  0.900138  0.949897  0.243459  0.885767  0.949042  0.000000  0.915562
  0.922346  0.137739  1.371497  0.223904  0.222805  0.241484  0.360045
  0.229819  0.924660  0.241599  0.971735  0.245273  1.371438  1.380525
  1.377332  1.380525  0.361511  0.239266  0.940986  0.960820  0.356500
  0.901467  0.911905  0.944180  0.187532  1.380525  0.966832  0.885021
  1.379811  0.880221  0.912803  1.012250  0.842074  1.373491  0.334256
  0.894590  0.218890
G001020815  0.729275  0.879837  1.055482  0.995302  0.990545  1.059788
  0.147046  1.000466  0.610814  0.676792  0.965788  0.780327  0.710412
  0.813568  0.715908  0.990778  0.722972  0.702889  0.915562  0.000000
  0.692581  0.916233  1.054179  0.926998  0.865624  1.000575  0.917420
  0.985905  0.016566  0.991755  0.787123  1.004093  1.050037  1.056667
  1.053812  1.056667  0.948672  0.996003  0.769134  0.716155  0.920065
  0.815408  0.761455  0.704965  0.964500  1.056667  0.778076  0.754466
  1.057355  0.681509  0.731701  0.746283  0.702301  1.056211  0.849603
  0.746088  0.870801
G001317545  0.424619  0.886091  1.188537  1.018648  1.020787  1.183823
  0.697337  1.029179  0.468112  0.530574  1.003377  0.446725  0.164755
  0.461540  0.527120  1.021987  0.359655  0.555920  0.922346  0.692581
  0.000000  0.942821  1.187869  0.929294  0.891043  1.017178  0.926238
  1.013365  0.704492  1.023037  0.441351  1.021895  1.184976  1.189851
  1.184004  1.189851  0.889561  1.018720  0.443951  0.528701  0.928787
  0.466482  0.374095  0.527313  1.002874  1.189851  0.437286  0.381205
  1.190510  0.136636  0.384140  0.405188  0.263919  1.191975  0.899547
  0.380617  0.891351
G000801835  0.981882  0.244109  1.371902  0.230677  0.234603  1.373670
  0.932990  0.244162  0.864160  0.919731  0.160658  0.965824  0.910147
  0.923776  0.925914  0.234695  0.883299  0.932232  0.137739  0.916233
  0.942821  0.000000  1.365046  0.245697  0.236639  0.241372  0.364649
  0.215041  0.922748  0.239826  0.975709  0.244805  1.359088  1.372036
  1.370997  1.372036  0.378103  0.230281  0.966550  0.944938  0.360721
  0.923694  0.913550  0.918910  0.159325  1.372036  0.989629  0.873773
  1.371322  0.895934  0.899672  0.989915  0.853522  1.365180  0.323807
  0.885246  0.231471
G001020795  1.266164  1.267790  0.013445  1.353994  1.353398  0.013523
  1.004767  1.389255  1.007351  1.170963  1.411584  1.286084  1.174266
  1.294394  1.150319  1.353392  1.169416  1.126659  1.371497  1.054179
  1.187869  1.365046  0.000000  1.378512  1.279451  1.390669  1.236912
  1.357822  1.051641  1.359159  1.339987  1.388253  0.017903  0.013438
  0.012514  0.013438  1.275681  1.358957  1.258111  1.132767  1.258277
  1.296713  1.159486  1.143612  1.411914  0.013438  1.270123  1.127648
  0.013447  1.156390  1.158532  1.295457  1.164913  0.013919  1.198886
  1.123148  1.287459
G001541845  0.930517  0.246512  1.386169  0.270460  0.249218  1.387088
  0.923826  0.255342  0.872278  0.922274  0.278045  0.922662  0.896749
  0.916499  0.925162  0.249287  0.891826  0.922263  0.223904  0.926998
  0.929294  0.245697  1.378512  0.000000  0.247917  0.246216  0.365079
  0.254745  0.933187  0.253617  0.940259  0.248539  1.369242  1.385444
  1.383208  1.385444  0.372254  0.270283  0.918471  0.929634  0.357402
  0.904888  0.945883  0.915109  0.276118  1.385444  0.946194  0.907823
  1.383742  0.907474  0.927221  0.961939  0.832497  1.378488  0.367309
  0.909923  0.243023
G000801855  0.911914  0.035089  1.279870  0.263440  0.261785  1.281472
  0.883839  0.269715  0.824259  0.887584  0.286308  0.918479  0.879260
  0.886781  0.898455  0.261903  0.862254  0.895998  0.222805  0.865624
  0.891043  0.236639  1.279451  0.247917  0.000000  0.266767  0.360409
  0.264788  0.879258  0.266382  0.941635  0.273033  1.276466  1.280700
  1.276313  1.280700  0.371717  0.258976  0.886671  0.904682  0.359253
  0.882160  0.885717  0.882865  0.283862  1.280700  0.907511  0.857211
  1.281625  0.863197  0.891656  0.950873  0.829476  1.274010  0.365283
  0.863373  0.011483
G000801875  0.992789  0.263253  1.397120  0.151802  0.046292  1.400213
  1.002535  0.036886  0.927957  0.983532  0.262918  0.978190  0.964783
  0.958937  0.978450  0.046254  0.943714  0.940324  0.241484  1.000575
  1.017178  0.241372  1.390669  0.246216  0.266767  0.000000  0.336375
  0.153100  0.992638  0.051394  1.006065  0.034128  1.383974  1.398039
  1.392926  1.398039  0.363799  0.150270  0.981369  0.984682  0.335617
  0.959232  0.970618  0.963688  0.261081  1.398039  0.994628  0.943650
  1.396171  0.974169  0.991766  1.052609  0.898841  1.392270  0.357551
  0.965077  0.262138
G000708695  0.954023  0.363128  1.240899  0.326036  0.333481  1.240361
  0.891437  0.343917  0.778216  0.894151  0.346313  0.893325  0.865494
  0.874510  0.878692  0.334035  0.820384  0.842071  0.360045  0.917420
  0.926238  0.364649  1.236912  0.365079  0.360409  0.336375  0.000000
  0.310145  0.911722  0.338787  0.920034  0.335577  1.231453  1.240345
  1.238438  1.240345  0.116478  0.328669  0.912903  0.882298  0.093686
  0.878138  0.829443  0.869281  0.344793  1.240345  0.929158  0.801434
  1.240049  0.866973  0.844960  0.988490  0.794909  1.235092  0.325484
  0.808262  0.360603
G000801895  1.019118  0.267029  1.367347  0.098645  0.149807  1.369380
  1.001040  0.147165  0.865658  0.972323  0.220417  0.974275  0.941623
  0.949630  0.984528  0.149675  0.915015  0.947887  0.229819  0.985905
  1.013365  0.215041  1.357822  0.254745  0.264788  0.153100  0.310145
  0.000000  0.977868  0.152946  1.000299  0.142768  1.358175  1.367484
  1.359097  1.367484  0.350044  0.097651  0.998838  0.971553  0.313749
  0.951345  0.925726  0.959284  0.218464  1.367484  1.017163  0.899775
  1.366771  0.944558  0.953656  1.063928  0.901320  1.360030  0.309852
  0.917922  0.259927
G001021695  0.739076  0.876148  1.053038  0.985734  0.986108  1.057314
  0.155526  0.992367  0.623068  0.680436  0.975286  0.788914  0.719584
  0.823913  0.721881  0.986343  0.731132  0.705022  0.924660  0.016566
  0.704492  0.922748  1.051641  0.933187  0.879258  0.992638  0.911722
  0.977868  0.000000  0.982219  0.798225  1.000052  1.046902  1.054220
  1.050520  1.054220  0.929217  0.986970  0.780492  0.722897  0.906289
  0.824486  0.774703  0.711044  0.973976  1.054220  0.788470  0.768893
  1.054904  0.690807  0.743997  0.753721  0.708646  1.053378  0.857253
  0.758895  0.874748
G001542705  1.004101  0.267719  1.368613  0.147959  0.037493  1.370649
  0.999886  0.048204  0.934225  0.984805  0.267126  0.986348  0.967359
  0.977761  0.982703  0.037463  0.941400  0.942237  0.241599  0.991755
  1.023037  0.239826  1.359159  0.253617  0.266382  0.051394  0.338787
  0.152946  0.982219  0.000000  1.013779  0.046426  1.351181  1.368749
  1.363921  1.368749  0.377379  0.147438  0.987435  0.988472  0.344000
  0.974974  0.976505  0.969234  0.264992  1.368749  0.994448  0.945028
  1.366931  0.972713  1.000882  1.057681  0.895597  1.361241  0.357513
  0.972808  0.261670
G000802985  0.220578  0.953971  1.348386  1.037942  0.999961  1.345171
  0.814555  1.004081  0.603961  0.614863  0.997067  0.096380  0.428629
  0.206442  0.605035  1.001285  0.469176  0.616160  0.971735  0.787123
  0.441351  0.975709  1.339987  0.940259  0.941635  1.006065  0.920034
  1.000299  0.798225  1.013779  0.000000  1.019925  1.334192  1.349868
  1.343696  1.349868  0.917449  1.037292  0.189998  0.629548  0.908548
  0.213521  0.503184  0.609392  0.994875  1.349868  0.188067  0.498611
  1.352007  0.428286  0.507139  0.263738  0.396658  1.346375  0.908594
  0.491620  0.941110
G001542725  1.010604  0.267789  1.401338  0.142881  0.040368  1.403648
  1.005669  0.043944  0.934107  0.998230  0.260442  0.990268  0.971415
  0.972745  0.987633  0.040335  0.945127  0.944837  0.245273  1.004093
  1.021895  0.244805  1.388253  0.248539  0.273033  0.034128  0.335577
  0.142768  1.000052  0.046426  1.019925  0.000000  1.386017  1.401453
  1.398780  1.401453  0.365977  0.143168  0.998019  0.991451  0.334760
  0.972722  0.974163  0.970564  0.258335  1.401453  1.010235  0.942611
  1.399587  0.973566  0.994893  1.066204  0.902656  1.395722  0.350187
  0.967210  0.264525
G001020765  1.262898  1.267826  0.016923  1.359438  1.345545  0.016788
  1.009130  1.394691  1.000190  1.166842  1.420299  1.280302  1.160275
  1.289981  1.142447  1.345545  1.162603  1.117503  1.371438  1.050037
  1.184976  1.359088  0.017903  1.369242  1.276466  1.383974  1.231453
  1.358175  1.046902  1.351181  1.334192  1.386017  0.000000  0.016915
  0.015759  0.016915  1.275258  1.354072  1.257347  1.126139  1.257878
  1.297635  1.144105  1.134331  1.420622  0.016915  1.269147  1.115478
  0.016926  1.147141  1.145252  1.291301  1.151371  0.017633  1.197369
  1.111326  1.288680
G001020645  1.273044  1.268745  0.000010  1.368533  1.362573  0.000010
  1.016497  1.406570  1.006208  1.165333  1.426058  1.291780  1.168231
  1.301832  1.145557  1.362560  1.165673  1.127758  1.380525  1.056667
  1.189851  1.372036  0.013438  1.385444  1.280700  1.398039  1.240345
  1.367484  1.054220  1.368749  1.349868  1.401453  0.016915  0.000000
  0.005740  0.000010  1.287485  1.363011  1.253575  1.126632  1.269436
  1.308942  1.159886  1.144269  1.426377  0.000010  1.277544  1.127968
  0.000010  1.161811  1.157561  1.297595  1.166972  0.006198  1.213524
  1.120857  1.290743
G001020705  1.267755  1.266933  0.005742  1.362669  1.359156  0.005776
  1.013196  1.398272  1.003053  1.166308  1.424962  1.286357  1.158147
  1.296737  1.144530  1.359146  1.161654  1.126785  1.377332  1.053812
  1.184004  1.370997  0.012514  1.383208  1.276313  1.392926  1.238438
  1.359097  1.050520  1.363921  1.343696  1.398780  0.015759  0.005740
  0.000000  0.005740  1.285482  1.360860  1.252980  1.126843  1.267450
  1.304775  1.154215  1.143981  1.425281  0.005740  1.275941  1.122563
  0.005743  1.152665  1.154861  1.293608  1.160208  0.005973  1.209688
  1.120032  1.288914
G001020625  1.273044  1.268745  0.000010  1.368533  1.362573  0.000010
  1.016497  1.406570  1.006208  1.165333  1.426058  1.291780  1.168231
  1.301832  1.145557  1.362560  1.165673  1.127758  1.380525  1.056667
  1.189851  1.372036  0.013438  1.385444  1.280700  1.398039  1.240345
  1.367484  1.054220  1.368749  1.349868  1.401453  0.016915  0.000010
  0.005740  0.000000  1.287485  1.363011  1.253575  1.126632  1.269436
  1.308942  1.159886  1.144269  1.426377  0.000010  1.277544  1.127968
  0.000010  1.161811  1.157561  1.297595  1.166972  0.006198  1.213524
  1.120857  1.290743
G000730425  0.967508  0.369907  1.286650  0.368723  0.373123  1.287681
  0.913430  0.376603  0.814953  0.917700  0.384061  0.914173  0.874508
  0.877555  0.882365  0.373684  0.846405  0.894454  0.361511  0.948672
  0.889561  0.378103  1.275681  0.372254  0.371717  0.363799  0.116478
  0.350044  0.929217  0.377379  0.917449  0.365977  1.275258  1.287485
  1.285482  1.287485  0.000000  0.370260  0.933723  0.917779  0.119821
  0.880099  0.865189  0.906233  0.382029  1.287485  0.916449  0.828882
  1.287195  0.875160  0.844367  0.977562  0.802289  1.282796  0.351406
  0.817814  0.373255
G001602175  1.039783  0.263245  1.362871  0.014592  0.150567  1.364575
  1.002568  0.149584  0.896443  0.985280  0.245684  1.014407  0.955218
  0.978135  0.995307  0.150435  0.941919  0.953057  0.239266  0.996003
  1.018720  0.230281  1.358957  0.270283  0.258976  0.150270  0.328669
  0.097651  0.986970  0.147438  1.037292  0.143168  1.354072  1.363011
  1.360860  1.363011  0.370260  0.000000  1.020334  0.982246  0.335004
  0.978904  0.936213  0.970339  0.243640  1.363011  1.037828  0.912736
  1.362300  0.951304  0.976408  1.074772  0.919087  1.357233  0.331095
  0.945238  0.253941
G000834545  0.216936  0.904246  1.252197  1.019515  0.974444  1.250165
  0.785120  0.974417  0.623826  0.589442  1.008446  0.187635  0.423649
  0.244541  0.591550  0.974474  0.474589  0.595445  0.940986  0.769134
  0.443951  0.966550  1.258111  0.918471  0.886671  0.981369  0.912903
  0.998838  0.780492  0.987435  0.189998  0.998019  1.257347  1.253575
  1.252980  1.253575  0.933723  1.020334  0.000000  0.587271  0.905439
  0.248091  0.511868  0.577645  1.007308  1.253575  0.063419  0.498716
  1.254325  0.430617  0.523059  0.272895  0.389358  1.255583  0.931900
  0.511855  0.890733
G001468775  0.581790  0.913534  1.125378  0.977787  0.975686  1.125570
  0.680011  0.989960  0.498381  0.192773  0.967537  0.618559  0.535346
  0.631702  0.096165  0.976762  0.501976  0.125260  0.960820  0.716155
  0.528701  0.944938  1.132767  0.929634  0.904682  0.984682  0.882298
  0.971553  0.722897  0.988472  0.629548  0.991451  1.126139  1.126632
  1.126843  1.126632  0.917779  0.982246  0.587271  0.000000  0.877931
  0.635268  0.507310  0.075911  0.968074  1.126632  0.600659  0.513791
  1.126685  0.527581  0.496246  0.581182  0.511588  1.131120  0.850717
  0.487337  0.904107
G001444295  0.934594  0.364188  1.270022  0.333072  0.341368  1.270747
  0.892359  0.347503  0.786640  0.897403  0.347427  0.882965  0.864978
  0.862181  0.873529  0.341924  0.815224  0.860820  0.356500  0.920065
  0.928787  0.360721  1.258277  0.357402  0.359253  0.335617  0.093686
  0.313749  0.906289  0.344000  0.908548  0.334760  1.257878  1.269436
  1.267450  1.269436  0.119821  0.335004  0.905439  0.877931  0.000000
  0.868263  0.824836  0.866073  0.345545  1.269436  0.918724  0.791650
  1.269143  0.865786  0.846199  0.963766  0.786720  1.264889  0.312268
  0.811633  0.359709
G000827755  0.273206  0.883984  1.307511  0.976249  0.960535  1.304751
  0.824427  0.955878  0.609804  0.653167  0.938551  0.195721  0.430477
  0.017943  0.645916  0.961594  0.449134  0.640852  0.901467  0.815408
  0.466482  0.923694  1.296713  0.904888  0.882160  0.959232  0.878138
  0.951345  0.824486  0.974974  0.213521  0.972722  1.297635  1.308942
  1.304775  1.308942  0.880099  0.978904  0.248091  0.635268  0.868263
  0.000000  0.470371  0.622800  0.936508  1.308942  0.246056  0.461420
  1.310951  0.434264  0.508677  0.326534  0.392727  1.304997  0.843874
  0.487366  0.884391
G000967955  0.520934  0.910245  1.158592  0.947754  0.972104  1.157308
  0.757688  0.980557  0.410663  0.541389  0.896195  0.474815  0.339610
  0.463703  0.520316  0.973173  0.218200  0.527439  0.911905  0.761455
  0.374095  0.913550  1.159486  0.945883  0.885717  0.970618  0.829443
  0.925726  0.774703  0.976505  0.503184  0.974163  1.144105  1.159886
  1.154215  1.159886  0.865189  0.936213  0.511868  0.507310  0.824836
  0.470371  0.000000  0.487683  0.895321  1.159886  0.522211  0.060286
  1.161514  0.362605  0.230415  0.524133  0.314058  1.158313  0.729739
  0.207573  0.889737
G000876175  0.581462  0.897480  1.143005  0.971379  0.963095  1.143007
  0.678805  0.970810  0.502547  0.191485  0.939519  0.602941  0.533892
  0.617214  0.081724  0.964153  0.491569  0.116330  0.944180  0.704965
  0.527313  0.918910  1.143612  0.915109  0.882865  0.963688  0.869281
  0.959284  0.711044  0.969234  0.609392  0.970564  1.134331  1.144269
  1.143981  1.144269  0.906233  0.970339  0.577645  0.075911  0.866073
  0.622800  0.487683  0.000000  0.940056  1.144269  0.590333  0.494011
  1.144727  0.524076  0.468453  0.571256  0.496633  1.148832  0.821202
  0.459283  0.881832
G000967935  1.024136  0.290733  1.426278  0.241414  0.260790  1.429647
  0.963999  0.261487  0.885750  0.998531  0.001566  0.983433  0.959436
  0.936207  0.964428  0.260865  0.889990  0.968726  0.187532  0.964500
  1.002874  0.159325  1.411914  0.276118  0.283862  0.261081  0.344793
  0.218464  0.973976  0.264992  0.994875  0.258335  1.420622  1.426377
  1.425281  1.426377  0.382029  0.243640  1.007308  0.968074  0.345545
  0.936508  0.895321  0.940056  0.000000  1.426377  1.031687  0.872058
  1.425653  0.959179  0.899169  1.038616  0.895095  1.419031  0.321648
  0.877970  0.277814
G001020785  1.273044  1.268745  0.000010  1.368533  1.362573  0.000010
  1.016497  1.406570  1.006208  1.165333  1.426058  1.291780  1.168231
  1.301832  1.145557  1.362560  1.165673  1.127758  1.380525  1.056667
  1.189851  1.372036  0.013438  1.385444  1.280700  1.398039  1.240345
  1.367484  1.054220  1.368749  1.349868  1.401453  0.016915  0.000010
  0.005740  0.000010  1.287485  1.363011  1.253575  1.126632  1.269436
  1.308942  1.159886  1.144269  1.426377  0.000000  1.277544  1.127968
  0.000010  1.161811  1.157561  1.297595  1.166972  0.006198  1.213524
  1.120857  1.290743
G000817895  0.217049  0.923014  1.276140  1.036029  0.986090  1.274447
  0.787630  0.987196  0.639642  0.582348  1.034149  0.199095  0.432801
  0.242481  0.582705  0.986111  0.485644  0.606892  0.966832  0.778076
  0.437286  0.989629  1.270123  0.946194  0.907511  0.994628  0.929158
  1.017163  0.788470  0.994448  0.188067  1.010235  1.269147  1.277544
  1.275941  1.277544  0.916449  1.037828  0.063419  0.600659  0.918724
  0.246056  0.522211  0.590333  1.031687  1.277544  0.000000  0.509692
  1.278332  0.431785  0.525014  0.263560  0.397100  1.281038  0.953237
  0.511216  0.909846
G000968015  0.515835  0.882203  1.126750  0.925942  0.943320  1.125288
  0.755138  0.956498  0.414023  0.540681  0.873494  0.467740  0.333150
  0.456240  0.525486  0.944375  0.225134  0.526630  0.885021  0.754466
  0.381205  0.873773  1.127648  0.907823  0.857211  0.943650  0.801434
  0.899775  0.768893  0.945028  0.498611  0.942611  1.115478  1.127968
  1.122563  1.127968  0.828882  0.912736  0.498716  0.513791  0.791650
  0.461420  0.060286  0.494011  0.872058  1.127968  0.509692  0.000000
  1.128544  0.352920  0.233704  0.508196  0.302884  1.127584  0.701010
  0.202688  0.862350
G001020805  1.272844  1.270654  0.000010  1.367820  1.360762  0.000010
  1.016459  1.404690  1.007479  1.164936  1.425334  1.291587  1.169863
  1.303825  1.145349  1.360750  1.166303  1.127232  1.379811  1.057355
  1.190510  1.371322  0.013447  1.383742  1.281625  1.396171  1.240049
  1.366771  1.054904  1.366931  1.352007  1.399587  0.016926  0.000010
  0.005743  0.000010  1.287195  1.362300  1.254325  1.126685  1.269143
  1.310951  1.161514  1.144727  1.425653  0.000010  1.278332  1.128544
  0.000000  1.163424  1.158146  1.297405  1.167599  0.006202  1.212842
  1.122373  1.291684
G001440325  0.406685  0.870469  1.160571  0.954003  0.968323  1.154904
  0.686175  0.978774  0.458116  0.534080  0.959624  0.411972  0.100519
  0.427061  0.538820  0.969489  0.319740  0.547727  0.880221  0.681509
  0.136636  0.895934  1.156390  0.907474  0.863197  0.974169  0.866973
  0.944558  0.690807  0.972713  0.428286  0.973566  1.147141  1.161811
  1.152665  1.161811  0.875160  0.951304  0.430617  0.527581  0.865786
  0.434264  0.362605  0.524076  0.959179  1.161811  0.431785  0.352920
  1.163424  0.000000  0.388048  0.407490  0.225238  1.162190  0.830189
  0.368567  0.866632
G001625455  0.539076  0.912948  1.156268  0.985446  0.991957  1.153860
  0.721510  0.999797  0.383470  0.516929  0.900610  0.501555  0.383683
  0.501731  0.473410  0.993055  0.284586  0.517903  0.912803  0.731701
  0.384140  0.899672  1.158532  0.927221  0.891656  0.991766  0.844960
  0.953656  0.743997  1.000882  0.507139  0.994893  1.145252  1.157561
  1.154861  1.157561  0.844367  0.976408  0.523059  0.496246  0.846199
  0.508677  0.230415  0.468453  0.899169  1.157561  0.525014  0.233704
  1.158146  0.388048  0.000000  0.505899  0.339257  1.157696  0.748643
  0.084254  0.892218
G000817905  0.197775  0.976253  1.296176  1.080953  1.044887  1.294444
  0.752164  1.053836  0.625785  0.572287  1.040974  0.271566  0.412516
  0.323224  0.573610  1.045985  0.481521  0.589370  1.012250  0.746283
  0.405188  0.989915  1.295457  0.961939  0.950873  1.052609  0.988490
  1.063928  0.753721  1.057681  0.263738  1.066204  1.291301  1.297595
  1.293608  1.297595  0.977562  1.074772  0.272895  0.581182  0.963766
  0.326534  0.524133  0.571256  1.038616  1.297595  0.263560  0.508196
  1.297405  0.407490  0.505899  0.000000  0.411050  1.301349  0.975180
  0.499137  0.952996
G000802965  0.394018  0.834770  1.165721  0.921404  0.889904  1.159883
  0.704226  0.899145  0.434575  0.513926  0.895280  0.375362  0.228199
  0.388360  0.514448  0.891022  0.289869  0.508974  0.842074  0.702301
  0.263919  0.853522  1.164913  0.832497  0.829476  0.898841  0.794909
  0.901320  0.708646  0.895597  0.396658  0.902656  1.151371  1.166972
  1.160208  1.166972  0.802289  0.919087  0.389358  0.511588  0.786720
  0.392727  0.314058  0.496633  0.895095  1.166972  0.397100  0.302884
  1.167599  0.225238  0.339257  0.411050  0.000000  1.165257  0.794076
  0.324708  0.830539
G001020725  1.270169  1.262139  0.006201  1.362447  1.356228  0.006237
  1.015331  1.398296  1.008033  1.168477  1.418707  1.291315  1.168439
  1.298897  1.150170  1.356220  1.166403  1.129458  1.373491  1.056211
  1.191975  1.365180  0.013919  1.378488  1.274010  1.392270  1.235092
  1.360030  1.053378  1.361241  1.346375  1.395722  0.017633  0.006198
  0.005973  0.006198  1.282796  1.357233  1.255583  1.131120  1.264889
  1.304997  1.158313  1.148832  1.419031  0.006198  1.281038  1.127584
  0.006202  1.162190  1.157696  1.301349  1.165257  0.000000  1.204104
  1.121846  1.283978
G001612705  0.938662  0.376729  1.213301  0.334688  0.356785  1.213780
  0.853019  0.355025  0.701546  0.869875  0.324012  0.885013  0.806835
  0.845229  0.852407  0.357340  0.751405  0.849749  0.334256  0.849603
  0.899547  0.323807  1.198886  0.367309  0.365283  0.357551  0.325484
  0.309852  0.857253  0.357513  0.908594  0.350187  1.197369  1.213524
  1.209688  1.213524  0.351406  0.331095  0.931900  0.850717  0.312268
  0.843874  0.729739  0.821202  0.321648  1.213524  0.953237  0.701010
  1.212842  0.830189  0.748643  0.975180  0.794076  1.204104  0.000000
  0.719760  0.363498
G000800625  0.527476  0.883586  1.119653  0.956719  0.965224  1.117127
  0.722426  0.971489  0.386813  0.502862  0.879333  0.490690  0.359133
  0.482413  0.472469  0.966291  0.268975  0.508948  0.894590  0.746088
  0.380617  0.885246  1.123148  0.909923  0.863373  0.965077  0.808262
  0.917922  0.758895  0.972808  0.491620  0.967210  1.111326  1.120857
  1.120032  1.120857  0.817814  0.945238  0.511855  0.487337  0.811633
  0.487366  0.207573  0.459283  0.877970  1.120857  0.511216  0.202688
  1.122373  0.368567  0.084254  0.499137  0.324708  1.121846  0.719760
  0.000000  0.863589
G000801915  0.913889  0.031534  1.290562  0.257389  0.257989  1.291591
  0.882947  0.266004  0.823340  0.886948  0.280230  0.923184  0.880382
  0.887581  0.897876  0.258109  0.863475  0.893964  0.218890  0.870801
  0.891351  0.231471  1.287459  0.243023  0.011483  0.262138  0.360603
  0.259927  0.874748  0.261670  0.941110  0.264525  1.288680  1.290743
  1.288914  1.290743  0.373255  0.253941  0.890733  0.904107  0.359709
  0.884391  0.889737  0.881832  0.277814  1.290743  0.909846  0.862350
  1.291684  0.866632  0.892218  0.952996  0.830539  1.283978  0.363498
  0.863589  0.000000
